Hour,Solar (MW),Charge (MW),Discharge (MW),SOC (MWh),Energy Served (MW)
0,0.015039169205672763,0.0,99.984961,893.45404,100.0
1,57.516339285324655,57.516339,100.0,834.10763,100.0
2,148.19654142247367,148.19654,100.0,856.37341,100.0
3,226.01822786127704,130.36274,4.3445164,968.87264,100.0
4,281.2923179647196,281.29232,100.0,1110.9246,100.0
5,309.2343799638959,209.23438,0.0,1299.2356,100.0
6,307.6445280014527,207.64453,0.0,1486.1156,100.0
7,276.64453930362515,176.64454,0.0,1645.0957,100.0
8,218.68634210809142,118.68634,0.0,1751.9134,100.0
9,138.88296498980787,38.882964,0.0,1786.9081,100.0
10,47.999137789564244,0.0,52.000863,1729.1293,100.0
11,0.0,0.0,100.0,1618.0182,100.0
12,0.0,0.0,100.0,1506.9071,100.0
13,0.0,0.0,100.0,1395.796,100.0
14,0.0,0.0,100.0,1284.6849,100.0
15,0.0,0.0,100.0,1173.5738,100.0
16,0.0,0.0,100.0,1062.4627,100.0
17,0.0,0.0,100.0,951.35157,100.0
18,0.0,0.0,100.0,840.24046,100.0
19,0.0,0.0,100.0,729.12934,100.0
20,0.0,0.0,100.0,618.01823,100.0
21,0.0,0.0,100.0,506.90712,100.0
22,0.0,0.0,100.0,395.79601,100.0
23,0.0,0.0,100.0,284.6849,100.0
24,0.01005136768965273,0.0,0.0,284.6849,0.010051368
25,57.23015292916194,0.0,42.769847,237.16285,100.0
26,148.0863335224995,48.086332,0.0,280.44055,100.0
27,226.1379326120552,126.13793,0.0,393.96468,100.0
28,281.6611553683945,181.66115,0.0,557.45972,100.0
29,309.85386576109545,209.85386,0.0,746.3282,100.0
30,308.4984783114808,208.49848,0.0,933.97683,100.0
31,277.69848800118785,177.69849,0.0,1093.9055,100.0
32,219.8856118501939,119.88561,0.0,1201.8025,100.0
33,140.14063508035198,40.140634,0.0,1237.9291,100.0
34,49.09568904854388,0.0,50.904311,1181.3687,100.0
35,0.0,0.0,100.0,1070.2576,100.0
36,0.0,0.0,100.0,959.14652,100.0
37,0.0,0.0,100.0,848.03541,100.0
38,0.0,0.0,100.0,736.9243,100.0
39,0.0,0.0,100.0,625.81318,100.0
40,0.0,0.0,100.0,514.70207,100.0
41,0.0,0.0,100.0,403.59096,100.0
42,0.0,0.0,100.0,292.47985,100.0
43,0.0,0.0,73.231866,211.11111,73.231866
44,0.0,0.0,100.0,100.0,100.0
45,0.0,0.0,47.368421,47.368421,47.368421
46,0.0,0.0,22.437673,22.437673,22.437673
47,0.0,0.0,10.628371,10.628371,10.628371
48,0.0060700387977540736,0.0,0.0,10.628371,0.0060700388
49,56.9763772632683,0.0,5.0344918,5.0344918,62.010869
50,148.01518094055209,48.01518,0.0,48.248154,100.0
51,226.29903081272238,126.29903,0.0,161.91728,100.0
52,282.0717033927737,182.0717,0.0,325.78181,100.0
53,310.5137894703772,210.51379,0.0,515.24422,100.0
54,309.39022928768117,209.39023,0.0,703.69542,100.0
55,278.7864801588373,178.78648,0.0,864.60325,100.0
56,221.11437030564207,121.11437,0.0,973.60619,100.0
57,141.4229746205285,41.422974,0.0,1010.8869,100.0
58,50.214230882513895,0.0,49.785769,955.56934,100.0
59,0.0,0.0,100.0,844.45823,100.0
60,0.0,0.0,100.0,733.34712,100.0
61,0.0,0.0,100.0,622.23601,100.0
62,0.0,0.0,100.0,511.1249,100.0
63,0.0,0.0,100.0,400.01378,100.0
64,0.0,0.0,100.0,288.90267,100.0
65,0.0,0.0,0.0,288.90267,0.0
66,0.0,0.0,100.0,177.79156,100.0
67,0.0,0.0,84.217056,84.217056,84.217056
68,0.0,0.0,39.89229,39.89229,39.89229
69,0.0,0.0,18.896348,18.896348,18.896348
70,0.0,0.0,8.9509016,8.9509016,8.9509016
71,0.0,0.0,4.2399007,4.2399007,4.2399007
72,0.0029024049027063198,0.0,0.0,4.2399007,0.0029024049
73,56.75538255130397,0.0,2.008374,2.008374,58.763756
74,147.98337162162562,47.983371,0.0,45.193407,100.0
75,226.50160228496313,126.5016,0.0,159.04485,100.0
76,282.5238145865813,182.52381,0.0,323.31628,100.0
77,311.2137811689324,211.21378,0.0,513.40868,100.0
78,310.3192107411284,210.31921,0.0,702.69597,100.0
79,279.90778362311715,179.90778,0.0,864.61297,100.0
80,222.37177842065205,122.37178,0.0,974.74757,100.0
81,142.72911885640667,42.729118,0.0,1013.2038,100.0
82,51.3540535262915,0.0,48.645947,959.15272,100.0
83,0.0,0.0,100.0,848.04161,100.0
84,0.0,0.0,100.0,736.9305,100.0
85,0.0,0.0,100.0,625.81939,100.0
86,0.0,0.0,100.0,514.70828,100.0
87,0.0,0.0,100.0,403.59717,100.0
88,0.0,0.0,100.0,292.48606,100.0
89,0.0,0.0,100.0,181.37495,100.0
90,0.0,0.0,0.0,181.37495,0.0
91,0.0,0.0,0.0,181.37495,0.0
92,0.0,0.0,85.914448,85.914448,85.914448
93,0.0,0.0,40.696318,40.696318,40.696318
94,0.0,0.0,19.277203,19.277203,19.277203
95,0.0,0.0,9.1313067,9.1313067,9.1313067
96,0.0003886170038737826,0.0,0.0,9.1313067,0.000388617
97,56.56751880694313,0.0,4.3253558,4.3253558,60.892874
98,147.9911599001814,47.991159,0.0,47.517399,100.0
99,226.7456903681003,126.74569,0.0,161.58852,100.0
100,283.0173058219496,183.0173,0.0,326.30409,100.0
101,311.9534385024477,211.95344,0.0,517.06218,100.0
102,311.2848251072951,211.28482,0.0,707.21852,100.0
103,281.06164516151216,181.06164,0.0,870.174,100.0
104,223.65698273957327,123.65698,0.0,981.46529,100.0
105,144.05819373741835,44.058193,0.0,1021.1177,100.0
106,52.5144280442361,0.0,47.485572,968.35591,100.0
107,0.0,0.0,100.0,857.2448,100.0
108,0.0,0.0,100.0,746.13369,100.0
109,0.0,0.0,100.0,635.02258,100.0
110,0.0,0.0,100.0,523.91147,100.0
111,0.0,0.0,100.0,412.80036,100.0
112,0.0,0.0,100.0,301.68925,100.0
113,0.0,0.0,100.0,190.57814,100.0
114,0.0,0.0,90.273854,90.273854,90.273854
115,0.0,0.0,42.761299,42.761299,42.761299
116,0.0,0.0,20.255352,20.255352,20.255352
117,0.0,0.0,9.5946405,9.5946405,9.5946405
118,0.0,0.0,4.5448297,4.5448297,4.5448297
119,0.0,0.0,2.1528141,2.1528141,2.1528141
120,0.0,0.0,1.019754,1.019754,1.019754
121,56.413120907090516,0.0,0.48304139,0.48304139,56.896162
122,148.03877111929805,48.03877,0.0,43.717934,100.0
123,227.03130585053862,127.0313,0.0,158.04611,100.0
124,283.5519613828254,183.55196,0.0,323.24287,100.0
125,312.7323287341181,212.73233,0.0,514.70197,100.0
126,312.28644838550855,212.28645,0.0,705.75977,100.0
127,282.2472902856462,182.24729,0.0,869.78233,100.0
128,224.96911426797593,124.96911,0.0,982.25453,100.0
129,145.4093139867852,45.409313,0.0,1023.1229,100.0
130,53.694604871891826,0.0,46.305396,971.67247,100.0
131,0.0,0.0,100.0,860.56136,100.0
132,0.0,0.0,100.0,749.45025,100.0
133,0.0,0.0,100.0,638.33914,100.0
134,0.0,0.0,100.0,527.22803,100.0
135,0.0,0.0,100.0,416.11691,100.0
136,0.0,0.0,100.0,305.0058,100.0
137,0.0,0.0,100.0,193.89469,100.0
138,0.0,0.0,0.0,193.89469,0.0
139,0.0,0.0,91.844854,91.844854,91.844854
140,0.0,0.0,43.505457,43.505457,43.505457
141,0.0,0.0,20.607848,20.607848,20.607848
142,0.0,0.0,9.7616123,9.7616123,9.7616123
143,0.0,0.0,4.6239216,4.6239216,4.6239216
144,0.0,0.0,2.1902787,2.1902787,2.1902787
145,56.292511864805235,0.0,1.0375004,1.0375004,57.330012
146,148.1264044090271,48.126403,0.0,44.351263,100.0
147,227.35842951843347,127.35843,0.0,158.97385,100.0
148,284.1275350716691,184.12753,0.0,324.68863,100.0
149,313.5499903498132,213.54999,0.0,516.88362,100.0
150,313.32343119083197,213.32343,0.0,708.8747,100.0
151,283.46392376347006,183.46392,0.0,873.99223,100.0
152,226.3072884186841,126.30729,0.0,987.66879,100.0
153,146.78158268689927,46.781582,0.0,1029.7722,100.0
154,54.89381382813073,0.0,45.106187,979.65423,100.0
155,0.0,0.0,100.0,868.54312,100.0
156,0.0,0.0,100.0,757.43201,100.0
157,0.0,0.0,100.0,646.3209,100.0
158,0.0,0.0,100.0,535.20978,100.0
159,0.0,0.0,100.0,424.09867,100.0
160,0.0,0.0,100.0,312.98756,100.0
161,0.0,0.0,100.0,201.87645,100.0
162,0.0,0.0,95.625687,95.625687,95.625687
163,0.0,0.0,45.296378,45.296378,45.296378
164,0.0,0.0,21.456179,21.456179,21.456179
165,0.0,0.0,10.163453,10.163453,10.163453
166,0.0,0.0,4.8142674,4.8142674,4.8142674
167,0.0,0.0,2.2804424,2.2804424,2.2804424
168,0.0,0.0,1.0802096,1.0802096,1.0802096
169,56.20600429040685,0.0,0.51167822,0.51167822,56.717682
170,148.25423380302072,48.254233,0.0,43.940488,100.0
171,227.727013248556,127.72701,0.0,158.8948,100.0
172,284.74375131666983,184.74375,0.0,325.16417,100.0
173,314.4059341061444,214.40593,0.0,518.12951,100.0
174,314.3950997177292,214.3951,0.0,711.0851,100.0
175,284.7107304589447,184.71073,0.0,877.32475,100.0
176,227.67060578070382,127.6706,0.0,992.2283,100.0
177,148.174091926716,48.174091,0.0,1035.585,100.0
178,56.11126537090713,0.0,43.888735,986.81972,100.0
179,0.0,0.0,100.0,875.70861,100.0
180,0.0,0.0,100.0,764.5975,100.0
181,0.0,0.0,100.0,653.48638,100.0
182,0.0,0.0,100.0,542.37527,100.0
183,0.0,0.0,100.0,431.26416,100.0
184,0.0,0.0,100.0,320.15305,100.0
185,0.0,0.0,100.0,209.04194,100.0
186,0.0,0.0,0.0,209.04194,0.0
187,0.0,0.0,99.019867,99.019867,99.019867
188,0.0,0.0,46.904147,46.904147,46.904147
189,0.0,0.0,22.217754,22.217754,22.217754
190,0.0,0.0,10.524199,10.524199,10.524199
191,0.0,0.0,4.985147,4.985147,4.985147
192,0.0,0.0,2.3613854,2.3613854,2.3613854
193,56.15390048564738,0.0,1.118551,1.118551,57.272451
194,148.42240791982428,48.422407,0.0,44.698717,100.0
195,228.13697991313097,128.13698,0.0,160.022,100.0
196,285.4003052907649,185.4003,0.0,326.88227,100.0
197,315.2996434029704,215.29964,0.0,520.65195,100.0
198,315.5007563441722,215.50075,0.0,714.60263,100.0
199,285.98687615465815,185.98687,0.0,881.99081,100.0
200,229.0581530658056,129.05815,0.0,998.14315,100.0
201,149.5859239297314,49.585923,0.0,1042.7705,100.0
202,57.34615237164703,0.0,42.653848,995.37731,100.0
203,0.0,0.0,100.0,884.2662,100.0
204,0.0,0.0,100.0,773.15509,100.0
205,0.0,0.0,100.0,662.04398,100.0
206,0.0,0.0,100.0,550.93287,100.0
207,0.0,0.0,100.0,439.82176,100.0
208,0.0,0.0,100.0,328.71065,100.0
209,0.0,0.0,100.0,217.59954,100.0
210,0.0,0.0,100.0,106.48843,100.0
211,0.0,0.0,0.0,106.48843,0.0
212,0.0,0.0,50.441886,50.441886,50.441886
213,0.0,0.0,23.893525,23.893525,23.893525
214,0.0,0.0,11.317985,11.317985,11.317985
215,0.0,0.0,5.361151,5.361151,5.361151
216,0.0,0.0,2.5394926,2.5394926,2.5394926
217,56.136491573607834,0.0,1.2029175,1.2029175,57.339409
218,148.63104876652048,48.631048,0.0,44.97086,100.0
219,228.58822242756966,128.58822,0.0,160.70026,100.0
220,286.0968623184673,186.09686,0.0,328.18743,100.0
221,316.2305740333089,216.23057,0.0,522.79495,100.0
222,316.63967973380954,216.63968,0.0,717.77066,100.0
223,287.2915079622328,187.29151,0.0,886.33301,100.0
224,230.46900382426088,130.469,0.0,1003.7551,100.0
225,151.0161519833704,51.016151,0.0,1049.6697,100.0
226,58.597651894071355,0.0,41.402349,1003.667,100.0
227,0.006012605451856303,0.0,0.0,1003.667,0.0060126054
228,0.0,0.0,100.0,892.55593,100.0
229,0.0,0.0,100.0,781.44482,100.0
230,0.0,0.0,100.0,670.33371,100.0
231,0.0,0.0,100.0,559.2226,100.0
232,0.0,0.0,100.0,448.11149,100.0
233,0.0,0.0,100.0,337.00037,100.0
234,0.0,0.0,100.0,225.88926,100.0
235,0.0,0.0,100.0,114.77815,100.0
236,0.0,0.0,54.368598,54.368598,54.368598
237,0.0,0.0,25.753547,25.753547,25.753547
238,0.0,0.0,12.199048,12.199048,12.199048
239,0.0,0.0,5.7784966,5.7784966,5.7784966
240,0.0,0.0,2.7371826,2.7371826,2.7371826
241,56.154056545573994,0.0,1.2965602,1.2965602,57.450616
242,148.88025037554263,48.880249,0.0,45.288785,100.0
243,229.08060259148806,129.0806,0.0,161.46133,100.0
244,286.8330569333007,186.83305,0.0,329.61107,100.0
245,317.1981535052974,217.19815,0.0,525.08941,100.0
246,317.81112438887396,217.81112,0.0,721.11942,100.0
247,288.6237540943293,188.62375,0.0,890.8808,100.0
248,231.9022183724247,131.90222,0.0,1009.5928,100.0
249,152.46384059535845,52.463839,0.0,1056.8102,100.0
250,59.864926161872944,0.0,40.135074,1012.2157,100.0
251,0.016817012659398056,0.0,0.0,1012.2157,0.016817013
252,0.0,0.0,100.0,901.10461,100.0
253,0.0,0.0,100.0,789.9935,100.0
254,0.0,0.0,100.0,678.88239,100.0
255,0.0,0.0,100.0,567.77128,100.0
256,0.0,0.0,100.0,456.66017,100.0
257,0.0,0.0,100.0,345.54905,100.0
258,0.0,0.0,100.0,234.43794,100.0
259,0.0,0.0,100.0,123.32683,100.0
260,0.0,0.0,58.417973,58.417973,58.417973
261,0.0,0.0,0.0,58.417973,0.0
262,0.0,0.0,27.671671,27.671671,27.671671
263,0.0,0.0,13.107634,13.107634,13.107634
264,0.0,0.0,6.2088792,6.2088792,6.2088792
265,56.20686194918429,0.0,2.941048,2.941048,59.14791
266,149.1700781917047,49.170077,0.0,47.194117,100.0
267,229.61395043188452,129.61395,0.0,163.84667,100.0
268,287.6084921957612,187.60849,0.0,332.69431,100.0
269,318.2017802510903,218.20178,0.0,529.07591,100.0
270,319.0143197359026,219.01432,0.0,726.1888,100.0
271,289.9827227912157,189.98272,0.0,897.17325,100.0
272,233.35684258720045,133.35684,0.0,1017.1944,100.0
273,153.9280441971769,53.928043,0.0,1065.7296,100.0
274,61.14712212399435,0.0,38.852878,1022.5598,100.0
275,0.03283994135677152,0.0,0.0,1022.5598,0.032839941
276,0.0,0.0,100.0,911.44867,100.0
277,0.0,0.0,100.0,800.33756,100.0
278,0.0,0.0,100.0,689.22644,100.0
279,0.0,0.0,100.0,578.11533,100.0
280,0.0,0.0,100.0,467.00422,100.0
281,0.0,0.0,100.0,355.89311,100.0
282,0.0,0.0,100.0,244.782,100.0
283,0.0,0.0,100.0,133.67089,100.0
284,0.0,0.0,63.317789,63.317789,63.317789
285,0.0,0.0,29.992637,29.992637,29.992637
286,0.0,0.0,14.207039,14.207039,14.207039
287,0.0,0.0,6.7296499,6.7296499,6.7296499
288,0.0,0.0,3.1877289,3.1877289,3.1877289
289,56.29516296679145,0.0,1.5099768,1.5099768,57.805139
290,149.5005697833301,49.500569,0.0,46.060489,100.0
291,230.18806462714815,130.18806,0.0,163.22975,100.0
292,288.42273960475586,188.42274,0.0,332.81021,100.0
293,319.2408229551337,219.24082,0.0,530.12695,100.0
294,320.2484687970702,220.24847,0.0,728.35057,100.0
295,291.3675003450947,191.3675,0.0,900.58132,100.0
296,234.83190532790417,134.8319,0.0,1021.93,100.0
297,155.40780422114668,55.407803,0.0,1071.7971,100.0
298,62.443369199246256,0.0,37.556631,1030.0675,100.0
299,0.05551787495862715,0.0,0.0,1030.0675,0.055517875
300,0.0,0.0,100.0,918.95635,100.0
301,0.0,0.0,100.0,807.84524,100.0
302,0.0,0.0,100.0,696.73413,100.0
303,0.0,0.0,100.0,585.62302,100.0
304,0.0,0.0,100.0,474.51191,100.0
305,0.0,0.0,100.0,363.40079,100.0
306,0.0,0.0,100.0,252.28968,100.0
307,0.0,0.0,100.0,141.17857,100.0
308,0.0,0.0,0.0,141.17857,0.0
309,0.0,0.0,66.874061,66.874061,66.874061
310,0.0,0.0,31.677187,31.677187,31.677187
311,0.0,0.0,15.004983,15.004983,15.004983
312,0.0,0.0,7.1076236,7.1076236,7.1076236
313,56.41920583317912,0.0,3.3667691,3.3667691,59.785974
314,149.87173697147435,49.871736,0.0,48.251331,100.0
315,230.80271391474906,130.80271,0.0,165.97377,100.0
316,289.2753395994863,189.27534,0.0,336.32158,100.0
317,320.3146199542155,220.31462,0.0,534.60473,100.0
318,321.5127464284859,221.51274,0.0,733.9662,100.0
319,292.77714819040654,192.77715,0.0,907.46563,100.0
320,236.32641454619213,136.32641,0.0,1030.1594,100.0
321,156.90214448880513,56.902143,0.0,1081.3713,100.0
322,63.75277531631152,0.0,36.247225,1041.0966,100.0
323,0.08644378201297953,0.0,0.0,1041.0966,0.086443781
324,0.0,0.0,100.0,929.98553,100.0
325,0.0,0.0,100.0,818.87442,100.0
326,0.0,0.0,100.0,707.76331,100.0
327,0.0,0.0,100.0,596.65219,100.0
328,0.0,0.0,100.0,485.54108,100.0
329,0.0,0.0,100.0,374.42997,100.0
330,0.0,0.0,100.0,263.31886,100.0
331,0.0,0.0,46.986975,211.11111,46.986975
332,0.0,0.0,100.0,100.0,100.0
333,0.0,0.0,47.368421,47.368421,47.368421
334,0.0,0.0,22.437673,22.437673,22.437673
335,0.0,0.0,10.628371,10.628371,10.628371
336,0.0,0.0,5.0344918,5.0344918,5.0344918
337,56.579230967786394,0.0,2.3847593,2.3847593,58.96399
338,150.28356851173953,50.283567,0.0,47.63997,100.0
339,231.457638884632,131.45764,0.0,165.95184,100.0
340,290.16580204842484,190.1658,0.0,337.10106,100.0
341,321.42247828644935,221.42248,0.0,536.38129,100.0
342,322.8062968830083,222.80629,0.0,736.90696,100.0
343,294.21069906831633,194.2107,0.0,911.69658,100.0
344,237.83935221299808,137.83935,0.0,1035.752,100.0
345,158.41006537003466,58.410064,0.0,1088.3211,100.0
346,65.07442159756802,0.0,34.925579,1049.5149,100.0
347,0.1273317624475793,0.0,0.0,1049.5149,0.12733176
348,0.0,0.0,100.0,938.40375,100.0
349,0.0,0.0,100.0,827.29264,100.0
350,0.0,0.0,100.0,716.18152,100.0
351,0.0,0.0,100.0,605.07041,100.0
352,0.0,0.0,100.0,493.9593,100.0
353,0.0,0.0,100.0,382.84819,100.0
354,0.0,0.0,100.0,271.73708,100.0
355,0.0,0.0,100.0,160.62597,100.0
356,0.0,0.0,76.085985,76.085985,76.085985
357,0.0,0.0,36.04073,36.04073,36.04073
358,0.0,0.0,17.071925,17.071925,17.071925
359,0.0,0.0,8.0867012,8.0867012,8.0867012
360,0.0,0.0,3.8305427,3.8305427,3.8305427
361,56.66429227783551,0.0,1.8144676,1.8144676,58.478759
362,150.58284477250382,50.582844,0.0,47.339027,100.0
363,231.98390173524245,131.9839,0.0,166.12454,100.0
364,290.9179802269445,190.91798,0.0,337.95072,100.0
365,322.38514923349067,222.38515,0.0,538.09735,100.0
366,323.9495753571899,223.94957,0.0,739.65196,100.0
367,295.4910757006371,195.49107,0.0,915.59393,100.0
368,239.20002605373097,139.20002,0.0,1040.874,100.0
369,159.7750742487068,59.775073,0.0,1094.6715,100.0
370,66.28912762591007,0.0,33.710873,1057.215,100.0
371,0.17789964480844164,0.0,0.0,1057.215,0.17789964
372,0.0,0.0,100.0,946.10388,100.0
373,0.0,0.0,100.0,834.99277,100.0
374,0.0,0.0,100.0,723.88166,100.0
375,0.0,0.0,100.0,612.77055,100.0
376,0.0,0.0,100.0,501.65944,100.0
377,0.0,0.0,100.0,390.54833,100.0
378,0.0,0.0,100.0,279.43722,100.0
379,0.0,0.0,61.493494,211.11111,61.493494
380,0.0,0.0,0.0,211.11111,0.0
381,0.0,0.0,100.0,100.0,100.0
382,0.0,0.0,47.368421,47.368421,47.368421
383,0.0,0.0,22.437673,22.437673,22.437673
384,0.0,0.0,10.628371,10.628371,10.628371
385,56.67426414898129,0.0,5.0344918,5.0344918,61.708755
386,150.76920922038784,50.769208,0.0,50.726779,100.0
387,232.38093106037593,132.38093,0.0,169.86962,100.0
388,291.5310780385395,191.53108,0.0,342.24758,100.0
389,323.201616062629,223.20161,0.0,543.12904,100.0
390,324.94135720132783,224.94135,0.0,745.57626,100.0
391,296.6168527082276,196.61685,0.0,922.53142,100.0
392,240.40677723487514,140.40678,0.0,1048.8975,100.0
393,160.99508783994136,60.995087,0.0,1103.7931,100.0
394,67.39337023345159,0.0,32.60663,1067.5635,100.0
395,0.23812556125379344,0.0,0.0,1067.5635,0.23812556
396,0.0,0.0,100.0,956.4524,100.0
397,0.0,0.0,100.0,845.34129,100.0
398,0.0,0.0,100.0,734.23017,100.0
399,0.0,0.0,100.0,623.11906,100.0
400,0.0,0.0,100.0,512.00795,100.0
401,0.0,0.0,100.0,400.89684,100.0
402,0.0,0.0,100.0,289.78573,100.0
403,0.0,0.0,100.0,178.67462,100.0
404,0.0,0.0,0.0,178.67462,0.0
405,0.0,0.0,84.635346,84.635346,84.635346
406,0.0,0.0,40.090427,40.090427,40.090427
407,0.0,0.0,18.990202,18.990202,18.990202
408,0.0,0.0,8.9953589,8.9953589,8.9953589
409,56.72030862683172,0.0,4.2609595,4.2609595,60.981268
410,150.99563553266276,50.995634,0.0,50.15703,100.0
411,232.81693554974356,132.81693,0.0,169.69227,100.0
412,292.1800479033417,192.18005,0.0,342.65431,100.0
413,324.0495156115355,224.04951,0.0,544.29887,100.0
414,325.95923146747526,225.95923,0.0,747.66218,100.0
415,297.76289967799545,197.7629,0.0,925.64879,100.0
416,241.62793377764473,141.62793,0.0,1053.1139,100.0
417,162.22413655550804,62.224135,0.0,1109.1156,100.0
418,68.50355623961151,0.0,31.496444,1074.1196,100.0
419,0.31079101469927944,0.0,0.0,1074.1196,0.31079101
420,0.0,0.0,100.0,963.00849,100.0
421,0.0,0.0,100.0,851.89738,100.0
422,0.0,0.0,100.0,740.78627,100.0
423,0.0,0.0,100.0,629.67515,100.0
424,0.0,0.0,100.0,518.56404,100.0
425,0.0,0.0,100.0,407.45293,100.0
426,0.0,0.0,100.0,296.34182,100.0
427,0.0,0.0,100.0,185.23071,100.0
428,0.0,0.0,87.740863,87.740863,87.740863
429,0.0,0.0,41.561461,41.561461,41.561461
430,0.0,0.0,19.687008,19.687008,19.687008
431,0.0,0.0,9.3254248,9.3254248,9.3254248
432,0.0,0.0,4.4173065,4.4173065,4.4173065
433,56.802501128821135,0.0,2.0924083,2.0924083,58.894909
434,151.2619885598394,51.261987,0.0,48.228197,100.0
435,233.29153235014098,133.29153,0.0,168.19057,100.0
436,292.8642666750749,192.86426,0.0,341.76841,100.0
437,324.9280119141923,224.92801,0.0,544.20362,100.0
438,327.00219272734967,227.00219,0.0,748.50559,100.0
439,298.9280982038948,198.9281,0.0,927.54088,100.0
440,242.86233161819553,142.86233,0.0,1056.117,100.0
441,163.4610894232773,63.461088,0.0,1113.232,100.0
442,69.61867863568105,0.0,30.381322,1079.4749,100.0
443,0.3970365757106972,0.0,0.0,1079.4749,0.39703657
444,0.0,0.0,100.0,968.36382,100.0
445,0.0,0.0,100.0,857.25271,100.0
446,0.0,0.0,100.0,746.1416,100.0
447,0.0,0.0,100.0,635.03049,100.0
448,0.0,0.0,100.0,523.91938,100.0
449,0.0,0.0,100.0,412.80826,100.0
450,0.0,0.0,100.0,301.69715,100.0
451,0.0,0.0,100.0,190.58604,100.0
452,0.0,0.0,90.277599,90.277599,90.277599
453,0.0,0.0,42.763073,42.763073,42.763073
454,0.0,0.0,20.256193,20.256193,20.256193
455,0.0,0.0,9.5950386,9.5950386,9.5950386
456,0.0,0.0,4.5450183,4.5450183,4.5450183
